"time","x","y","position","velocity","acceleration","jerk","heading"
0,0,180,0,0,133,0,0
0.02,0.163095,180,0.163095,2.66,133,0,0.00374644
0.04,0.32619,180,0.32619,5.32,133,0,0.00749289
0.06,0.489285,180,0.489285,7.98,133,0,0.0112393
0.08,0.65238,180,0.65238,10.64,133,0,0.0149858
0.1,0.815475,180,0.815475,13.3,133,0,0.0187322
0.12,0.97857,180,0.97857,15.96,133,0,0.0224787
0.14,1.34201,180,1.34201,18.62,133,0,0.0376361
0.16,1.73576,180,1.73576,21.28,133,0,0.0545196
0.18,2.16877,180.001,2.16877,23.94,133,0,0.0772637
0.2,2.68191,180.002,2.68191,26.6,133,0,0.111966
0.22,3.23137,180.003,3.23137,29.26,133,0,0.158003
0.24,3.84004,180.005,3.84005,31.92,133,0,0.222526
0.26,4.50932,180.008,4.50933,34.58,133,0,0.303076
0.28,5.22143,180.012,5.22145,37.24,133,0,0.398047
0.3,5.9856,180.018,5.98564,39.9,133,0,0.514362
0.32,6.81531,180.026,6.8154,42.56,133,0,0.666928
0.34,7.69431,180.038,7.69448,45.22,133,0,0.841775
0.36,8.62501,180.053,8.6253,47.88,133,0,1.04894
0.38,9.60838,180.073,9.60887,50.54,133,0,1.29436
0.4,10.6446,180.099,10.6455,53.2,133,0,1.57576
0.42,11.7335,180.132,11.7348,55.86,133,0,1.90176
0.44,12.8745,180.173,12.8766,58.52,133,0,2.27705
0.46,14.0694,180.225,14.0726,61.18,133,0,2.69916
0.48,15.3203,180.289,15.3251,63.84,133,0,3.18865
0.5,16.6213,180.367,16.6285,66.5,133,0,3.73301
0.52,17.9713,180.462,17.9819,69.16,133,0,4.34179
0.54,19.3792,180.578,19.3945,71.82,133,0,5.03095
0.56,20.8341,180.715,20.8559,74.48,133,0,5.78934
0.58,22.3426,180.879,22.3732,77.14,133,0,6.63821
0.6,23.8979,181.072,23.9406,79.8,133,0,7.56577
0.62,25.5062,181.301,25.565,82.46,133,0,8.60013
0.64,27.1599,181.567,27.2401,85.12,133,0,9.72239
0.66,28.8595,181.877,28.9677,87.78,133,0,10.9557
0.68,30.6064,182.236,30.7511,90.44,133,0,12.2958
0.7,32.395,182.649,32.5869,93.1,133,0,13.7497
0.72,34.2232,183.122,34.4754,95.76,133,0,15.3108
0.74,36.0882,183.662,36.4171,98.42,133,0,16.9873
0.76,37.9868,184.274,38.412,101.08,133,0,18.7681
0.78,39.915,184.965,40.4601,103.74,133,0,20.6537
0.8,41.8681,185.74,42.5614,106.4,133,0,22.628
0.82,43.8414,186.604,44.7157,109.06,133,0,24.6803
0.84,45.8294,187.562,46.9228,111.72,133,0,26.7911
0.86,47.8284,188.619,49.1842,114.38,133,0,28.9391
0.88,49.8323,189.777,51.4988,117.04,133,0,31.1006
0.9,51.8353,191.038,53.8655,119.7,133,0,33.2446
0.92,53.8349,192.402,56.2865,122.36,133,0,35.3474
0.94,55.8264,193.869,58.7602,125.02,133,0,37.3755
0.96,57.8079,195.437,61.2872,127.68,133,0,39.3058
0.98,59.7774,197.104,63.8671,130.34,133,0,41.1123
1,61.7352,198.864,66.5,132.75,33.25,0,42.7655
1.02,63.663,200.695,69.1591,133,0,0,44.246
1.04,65.5471,202.573,71.8191,133,0,0,45.5118
1.06,67.3926,204.488,74.4791,133,0,0,46.5749
1.08,69.2057,206.435,77.1391,133,0,0,47.4317
1.1,70.9933,208.405,79.7991,133,0,0,48.0747
1.12,72.7621,210.391,82.4591,133,0,0,48.5156
1.14,74.5193,212.388,85.1191,133,0,0,48.7462
1.16,76.2721,214.389,87.7791,133,0,0,48.768
1.18,78.0276,216.387,90.4391,133,0,0,48.5854
1.2,79.7933,218.377,93.0991,133,0,0,48.1907
1.22,81.5761,220.351,95.7591,133,0,0,47.5859
1.24,83.3834,222.303,98.4191,133,0,0,46.7685
1.26,85.2219,224.225,101.079,133,0,0,45.7348
1.28,87.0983,226.11,103.739,133,0,0,44.4882
1.3,89.0187,227.951,106.399,133,0,0,43.0216
1.32,90.9889,229.738,109.059,133,0,0,41.3518
1.34,93.0134,231.463,111.719,133,0,0,39.4733
1.36,95.0962,233.117,114.379,133,0,0,37.4051
1.38,97.2397,234.692,117.039,133,0,0,35.1715
1.4,99.445,236.179,119.699,133,0,0,32.7837
1.42,101.712,237.571,122.359,133,0,0,30.287
1.44,104.038,238.861,125.019,133,0,0,27.7107
1.46,106.42,240.043,127.679,133,0,0,25.0976
1.48,108.854,241.116,130.339,133,0,0,22.4895
1.5,111.334,242.078,132.999,133,0,0,19.9254
1.52,113.853,242.93,135.659,133,0,0,17.4435
1.54,116.407,243.674,138.319,133,0,0,15.0774
1.56,118.988,244.315,140.979,133,0,0,12.8456
1.58,121.592,244.858,143.639,133,0,0,10.7735
1.6,124.213,245.311,146.299,133,0,0,8.87173
1.62,126.847,245.681,148.959,133,0,0,7.14805
1.64,129.491,245.975,151.619,133,0,0,5.60832
1.66,132.141,246.203,154.279,133,0,0,4.2485
1.68,134.796,246.372,156.939,133,0,0,3.07155
1.7,137.453,246.49,159.599,133,0,0,2.08538
1.72,140.112,246.567,162.259,133,0,0,1.28034
1.74,142.771,246.611,164.919,133,0,0,0.658992
1.76,145.431,246.631,167.579,133,0,0,0.230352
1.78,148.091,246.635,170.239,133,0,0,-0.00585328
1.8,150.751,246.633,172.899,133,0,0,-0.0379556
1.82,153.411,246.636,175.559,133,0,0,0.237357
1.84,156.071,246.655,178.219,133,0,0,0.555558
1.86,158.731,246.686,180.879,133,0,0,0.755025
1.88,161.391,246.724,183.539,133,0,0,0.836257
1.9,164.051,246.762,186.199,133,0,0,0.799211
1.92,166.71,246.797,188.859,133,0,0,0.644395
1.94,169.37,246.821,191.519,133,0,0,0.360443
1.96,172.03,246.829,194.179,133,0,0,-0.0477952
1.98,174.69,246.815,196.839,133,0,0,-0.581032
2,177.35,246.773,199.499,133,0,0,-1.25303
2.02,180.009,246.697,202.159,133,0,0,-2.06229
2.04,182.666,246.58,204.819,133,0,0,-3.0267
2.06,185.321,246.415,207.479,133,0,0,-4.15046
2.08,187.972,246.193,210.139,133,0,0,-5.45092
2.1,190.616,245.907,212.799,133,0,0,-6.94953
2.12,193.252,245.547,215.459,133,0,0,-8.66777
2.14,195.874,245.103,218.119,133,0,0,-10.633
2.16,198.479,244.563,220.779,133,0,0,-12.8753
2.18,201.058,243.915,223.439,133,0,0,-15.4286
2.2,203.604,243.145,226.099,133,0,0,-18.3277
2.22,206.104,242.239,228.759,133,0,0,-21.618
2.24,208.545,241.182,231.419,133,0,0,-25.3269
2.26,210.907,239.961,234.079,133,0,0,-29.4667
2.28,213.17,238.563,236.739,133,0,0,-34.0403
2.3,215.308,236.982,239.399,133,0,0,-38.9935
2.32,217.297,235.217,242.059,133,0,0,-44.238
2.34,219.113,233.275,244.719,133,0,0,-49.6407
2.36,220.737,231.17,247.379,133,0,0,-55.0204
2.38,222.16,228.923,250.039,133,0,0,-60.2175
2.4,223.379,226.56,252.699,133,0,0,-65.0823
2.42,224.403,224.106,255.359,133,0,0,-69.5256
2.44,225.244,221.582,258.019,133,0,0,-73.4974
2.46,225.919,219.01,260.679,133,0,0,-76.9699
2.48,226.448,216.403,263.339,133,0,0,-79.9709
2.5,226.849,213.774,265.999,133,0,0,-82.5277
2.52,227.144,211.131,268.659,133,0,0,-84.6649
2.54,227.348,208.479,271.319,133,0,0,-86.4194
2.56,227.479,205.822,273.979,133,0,0,-87.8291
2.58,227.555,203.163,276.639,133,0,0,-88.8562
2.6,227.589,200.503,279.299,133,0,0,-89.5621
2.62,227.598,197.843,281.959,133,0,0,-89.9308
2.64,227.599,195.183,284.619,133,0,0,-90.0469
2.66,227.592,192.523,287.279,133,0,0,-90.3019
2.68,227.568,189.863,289.939,133,0,0,-90.8156
2.7,227.514,187.204,292.599,133,0,0,-91.5765
2.72,227.419,184.546,295.259,133,0,0,-92.5892
2.74,227.271,181.89,297.919,133,0,0,-93.8742
2.76,227.057,179.239,300.579,133,0,0,-95.4278
2.78,226.765,176.595,303.239,133,0,0,-97.2747
2.8,226.38,173.963,305.899,133,0,0,-99.4283
2.82,225.889,171.349,308.559,133,0,0,-101.933
2.84,225.277,168.761,311.219,133,0,0,-104.783
2.86,224.528,166.208,313.879,133,0,0,-108.001
2.88,223.63,163.705,316.539,133,0,0,-111.586
2.9,222.569,161.266,319.199,133,0,0,-115.512
2.92,221.338,158.909,321.859,133,0,0,-119.737
2.94,219.931,156.653,324.519,133,0,0,-124.189
2.96,218.35,154.514,327.179,133,0,0,-128.767
2.98,216.603,152.509,329.839,133,0,0,-133.361
3,214.702,150.649,332.499,133,0,0,-137.853
3.02,212.664,148.941,335.159,133,0,0,-142.152
3.04,210.507,147.386,337.819,133,0,0,-146.182
3.06,208.25,145.979,340.479,133,0,0,-149.899
3.08,205.909,144.716,343.139,133,0,0,-153.289
3.1,203.502,143.586,345.799,133,0,0,-156.356
3.12,201.039,142.58,348.459,133,0,0,-159.108
3.14,198.534,141.687,351.119,133,0,0,-161.581
3.16,195.994,140.896,353.779,133,0,0,-163.783
3.18,193.428,140.199,356.439,133,0,0,-165.756
3.2,190.84,139.585,359.099,133,0,0,-167.519
3.22,188.235,139.047,361.759,133,0,0,-169.1
3.24,185.616,138.578,364.419,133,0,0,-170.518
3.26,182.988,138.169,367.079,133,0,0,-171.797
3.28,180.351,137.817,369.739,133,0,0,-172.939
3.3,177.709,137.514,372.399,133,0,0,-173.973
3.32,175.061,137.257,375.059,133,0,0,-174.91
3.34,172.41,137.041,377.719,133,0,0,-175.755
3.36,169.756,136.863,380.379,133,0,0,-176.525
3.38,167.1,136.718,383.039,133,0,0,-177.228
3.4,164.442,136.605,385.699,133,0,0,-177.87
3.42,161.784,136.52,388.359,133,0,0,-178.46
3.44,159.124,136.462,391.019,133,0,0,-179.007
3.46,156.465,136.428,393.679,133,0,0,-179.517
3.48,153.805,136.416,396.339,133,0,0,-179.978
3.5,151.145,136.422,398.999,133,0,0,179.733
3.52,148.485,136.443,401.659,133,0,0,179.351
3.54,145.825,136.484,404.319,133,0,0,178.859
3.56,143.166,136.55,406.979,133,0,0,178.26
3.58,140.508,136.647,409.639,133,0,0,177.553
3.6,137.851,136.778,412.299,133,0,0,176.744
3.62,135.197,136.95,414.959,133,0,0,175.837
3.64,132.545,137.166,417.619,133,0,0,174.827
3.66,129.899,137.431,420.279,133,0,0,173.719
3.68,127.258,137.749,422.939,133,0,0,172.512
3.7,124.625,138.125,425.599,133,0,0,171.211
3.72,122.001,138.563,428.259,133,0,0,169.822
3.74,119.389,139.066,430.919,133,0,0,168.346
3.76,116.791,139.638,433.579,133,0,0,166.793
3.78,114.211,140.282,436.239,133,0,0,165.176
3.8,111.649,141,438.899,133,0,0,163.505
3.82,109.11,141.793,441.559,133,0,0,161.797
3.84,106.596,142.662,444.219,133,0,0,160.073
3.86,104.11,143.606,446.879,133,0,0,158.351
3.88,101.652,144.624,449.539,133,0,0,156.659
3.9,99.2255,145.713,452.199,133,0,0,155.018
3.92,96.8302,146.869,454.859,133,0,0,153.456
3.94,94.4662,148.089,457.519,133,0,0,151.999
3.96,92.1327,149.365,460.179,133,0,0,150.664
3.98,89.8278,150.693,462.839,133,0,0,149.484
4,87.5488,152.065,465.499,133,0,0,148.471
4.02,85.2922,153.473,468.159,133,0,0,147.637
4.04,83.0537,154.91,470.819,133,0,0,147.009
4.06,80.8286,156.368,473.479,133,0,0,146.589
4.08,78.6115,157.837,476.139,133,0,0,146.377
4.1,76.3969,159.311,478.799,133,0,0,146.394
4.12,74.1791,160.779,481.459,133,0,0,146.632
4.14,71.9525,162.235,484.119,133,0,0,147.082
4.16,69.7117,163.668,486.779,133,0,0,147.754
4.18,67.4517,165.071,489.439,133,0,0,148.631
4.2,65.1685,166.435,492.099,132.95,-73.0751,0,149.695
4.22,62.876,167.743,494.738,130.742,-133,0,150.93
4.24,60.5996,168.974,497.326,128.082,-133,0,152.292
4.26,58.3404,170.125,499.862,125.422,-133,0,153.746
4.28,56.1009,171.193,502.343,122.762,-133,0,155.267
4.3,53.8814,172.179,504.772,120.102,-133,0,156.828
4.32,51.685,173.084,507.148,117.442,-133,0,158.4
4.34,49.5151,173.909,509.469,114.782,-133,0,159.962
4.36,47.373,174.658,511.738,112.122,-133,0,161.495
4.38,45.2621,175.335,513.955,109.462,-133,0,162.984
4.4,43.1868,175.941,516.117,106.802,-133,0,164.413
4.42,41.1488,176.484,518.226,104.142,-133,0,165.776
4.44,39.1502,176.966,520.282,101.482,-133,0,167.066
4.46,37.1934,177.393,522.285,98.8219,-133,0,168.28
4.48,35.2803,177.77,524.235,96.1619,-133,0,169.417
4.5,33.4124,178.101,526.132,93.5019,-133,0,170.474
4.52,31.5911,178.391,527.976,90.8419,-133,0,171.457
4.54,29.82,178.642,529.765,88.1819,-133,0,172.358
4.56,28.0975,178.86,531.502,85.5219,-133,0,173.191
4.58,26.4234,179.049,533.186,82.8619,-133,0,173.954
4.6,24.8009,179.21,534.817,80.2019,-133,0,174.654
4.62,23.2306,179.348,536.393,77.5419,-133,0,175.287
4.64,21.7092,179.466,537.919,74.8819,-133,0,175.866
4.66,20.2436,179.565,539.388,72.2219,-133,0,176.388
4.68,18.8273,179.648,540.807,69.5619,-133,0,176.858
4.7,17.4645,179.718,542.171,66.9019,-133,0,177.284
4.72,16.1562,179.776,543.481,64.2419,-133,0,177.659
4.74,14.8982,179.823,544.74,61.5819,-133,0,177.999
4.76,13.6914,179.862,545.947,58.9219,-133,0,178.301
4.78,12.541,179.893,547.098,56.2619,-133,0,178.563
4.8,11.4444,179.919,548.195,53.6019,-133,0,178.797
4.82,10.4002,179.939,549.239,50.9419,-133,0,178.999
4.84,9.40856,179.954,550.231,48.2819,-133,0,179.173
4.86,8.46909,179.967,551.171,45.6219,-133,0,179.327
4.88,7.58072,179.976,552.059,42.9619,-133,0,179.458
4.9,6.74974,179.983,552.89,40.3019,-133,0,179.565
4.92,5.97673,179.988,553.663,37.6419,-133,0,179.655
4.94,5.25354,179.992,554.386,34.9819,-133,0,179.731
4.96,4.57184,179.995,555.068,32.3219,-133,0,179.797
4.98,3.96317,179.996,555.677,29.6619,-133,0,179.842
5,3.39928,179.998,556.241,27.0019,-133,0,179.882
5.02,2.88614,179.999,556.754,24.3419,-133,0,179.913
5.04,2.43509,179.999,557.205,21.6819,-133,0,179.937
5.06,2.04134,180,557.598,19.0219,-133,0,179.954
5.08,1.64759,180,557.992,16.3619,-133,0,179.971
5.1,1.47996,180,558.16,13.7019,-133,0,179.975
5.12,1.31686,180,558.323,11.0419,-133,0,179.978
5.14,1.15377,180,558.486,8.38188,-133,0,179.981
5.16,0.990673,180,558.649,5.72188,-133,0,179.984
5.18,0.827578,180,558.812,3.06188,-133,0,179.987
5.2,0.664483,180,558.975,0.401883,-133,0,179.99
