"time","x","y","position","velocity","acceleration","jerk","heading"
0,-11.5,168.5,0,0,133,0,0
0.02,-11.3369,168.5,0.163095,2.66,133,0,0.00374644
0.04,-11.1738,168.5,0.32619,5.32,133,0,0.00749289
0.06,-11.0107,168.5,0.489285,7.98,133,0,0.0112393
0.08,-10.8476,168.5,0.65238,10.64,133,0,0.0149858
0.1,-10.6845,168.5,0.815475,13.3,133,0,0.0187322
0.12,-10.5214,168.5,0.97857,15.96,133,0,0.0224787
0.14,-10.158,168.5,1.34201,18.62,133,0,0.0376361
0.16,-9.76424,168.5,1.73576,21.28,133,0,0.0545196
0.18,-9.33123,168.501,2.16877,23.94,133,0,0.0772637
0.2,-8.81809,168.502,2.68191,26.6,133,0,0.111966
0.22,-8.26863,168.503,3.23137,29.26,133,0,0.158003
0.24,-7.65996,168.505,3.84005,31.92,133,0,0.222526
0.26,-6.99068,168.508,4.50933,34.58,133,0,0.303076
0.28,-6.27857,168.512,5.22145,37.24,133,0,0.398047
0.3,-5.5144,168.518,5.98565,39.9,133,0,0.514362
0.32,-4.68469,168.526,6.8154,42.56,133,0,0.666928
0.34,-3.80569,168.538,7.69448,45.22,133,0,0.841775
0.36,-2.87499,168.553,8.6253,47.88,133,0,1.04894
0.38,-1.89162,168.573,9.60887,50.54,133,0,1.29436
0.4,-0.8554,168.599,10.6454,53.2,133,0,1.57576
0.42,0.2335,168.632,11.7348,55.86,133,0,1.90176
0.44,1.3745,168.673,12.8766,58.52,133,0,2.27705
0.46,2.5694,168.725,14.0726,61.18,133,0,2.69916
0.48,3.8203,168.789,15.3251,63.84,133,0,3.18865
0.5,5.1213,168.867,16.6285,66.5,133,0,3.73301
0.52,6.4713,168.962,17.9818,69.16,133,0,4.34179
0.54,7.8792,169.078,19.3945,71.82,133,0,5.03095
0.56,9.3341,169.215,20.8558,74.48,133,0,5.78934
0.58,10.8426,169.379,22.3732,77.14,133,0,6.63821
0.6,12.3979,169.572,23.9404,79.8,133,0,7.56577
0.62,14.0062,169.801,25.5649,82.46,133,0,8.60013
0.64,15.6599,170.067,27.2399,85.12,133,0,9.72239
0.66,17.3595,170.377,28.9675,87.78,133,0,10.9557
0.68,19.1064,170.736,30.7509,90.44,133,0,12.2958
0.7,20.895,171.149,32.5866,93.1,133,0,13.7497
0.72,22.7232,171.622,34.475,95.76,133,0,15.3108
0.74,24.5882,172.162,36.4166,98.42,133,0,16.9873
0.76,26.4868,172.774,38.4114,101.08,133,0,18.7681
0.78,28.415,173.465,40.4597,103.74,133,0,20.6537
0.8,30.3681,174.24,42.5609,106.4,133,0,22.628
0.82,32.3414,175.104,44.7151,109.06,133,0,24.6803
0.84,34.3294,176.062,46.9219,111.72,133,0,26.7911
0.86,36.3284,177.119,49.1831,114.38,133,0,28.9391
0.88,38.3323,178.277,51.4976,117.04,133,0,31.1006
0.9,40.3353,179.538,53.8644,119.7,133,0,33.2446
0.92,42.3349,180.902,56.285,122.36,133,0,35.3474
0.94,44.3264,182.369,58.7584,125.02,133,0,37.3755
0.96,46.3079,183.937,61.2853,127.68,133,0,39.3058
0.98,48.2774,185.604,63.8656,130.34,133,0,41.1123
1,50.2352,187.364,66.4982,132.75,33.25,0,42.7655
1.02,52.163,189.195,69.1569,133,0,0,44.246
1.04,54.0471,191.073,71.8171,133,0,0,45.5118
1.06,55.8926,192.988,74.4767,133,0,0,46.5749
1.08,57.7057,194.935,77.1371,133,0,0,47.4317
1.1,59.4933,196.905,79.7973,133,0,0,48.0747
1.12,61.2621,198.891,82.4568,133,0,0,48.5156
1.14,63.0193,200.888,85.1168,133,0,0,48.7462
1.16,64.7721,202.889,87.7769,133,0,0,48.768
1.18,66.5276,204.887,90.4366,133,0,0,48.5854
1.2,68.2933,206.877,93.097,133,0,0,48.1907
1.22,70.0761,208.851,95.7569,133,0,0,47.5859
1.24,71.8834,210.803,98.4171,133,0,0,46.7685
1.26,73.7219,212.725,101.077,133,0,0,45.7348
1.28,75.5983,214.61,103.737,133,0,0,44.4882
1.3,77.5187,216.451,106.397,133,0,0,43.0216
1.32,79.4889,218.238,109.057,133,0,0,41.3518
1.34,81.5134,219.963,111.716,133,0,0,39.4733
1.36,83.5962,221.617,114.376,133,0,0,37.4051
1.38,85.7397,223.192,117.036,133,0,0,35.1715
1.4,87.945,224.679,119.696,133,0,0,32.7837
1.42,90.212,226.071,122.356,133,0,0,30.287
1.44,92.538,227.361,125.016,133,0,0,27.7107
1.46,94.92,228.543,127.675,133,0,0,25.0976
1.48,97.354,229.616,130.335,133,0,0,22.4895
1.5,99.834,230.578,132.995,133,0,0,19.9254
1.52,102.353,231.43,135.654,133,0,0,17.4435
1.54,104.907,232.174,138.314,133,0,0,15.0774
1.56,107.488,232.815,140.974,133,0,0,12.8456
1.58,110.092,233.358,143.634,133,0,0,10.7735
1.6,112.713,233.811,146.294,133,0,0,8.87173
1.62,115.347,234.181,148.954,133,0,0,7.14805
1.64,117.991,234.475,151.614,133,0,0,5.60832
1.66,120.641,234.703,154.274,133,0,0,4.2485
1.68,123.296,234.872,156.934,133,0,0,3.07155
1.7,125.953,234.99,159.594,133,0,0,2.08538
1.72,128.612,235.067,162.254,133,0,0,1.28034
1.74,131.271,235.111,164.913,133,0,0,0.658992
1.76,133.931,235.131,167.573,133,0,0,0.230352
1.78,136.591,235.135,170.233,133,0,0,-0.00585328
1.8,139.251,235.133,172.893,133,0,0,-0.0379556
1.82,141.911,235.136,175.553,133,0,0,0.237357
1.84,144.571,235.155,178.213,133,0,0,0.555558
1.86,147.231,235.186,180.873,133,0,0,0.755025
1.88,149.891,235.224,183.534,133,0,0,0.836257
1.9,152.551,235.262,186.194,133,0,0,0.799211
1.92,155.21,235.297,188.853,133,0,0,0.644395
1.94,157.87,235.321,191.513,133,0,0,0.360443
1.96,160.53,235.329,194.173,133,0,0,-0.0477952
1.98,163.19,235.315,196.833,133,0,0,-0.581032
2,165.85,235.273,199.494,133,0,0,-1.25303
2.02,168.509,235.197,202.154,133,0,0,-2.06229
2.04,171.166,235.08,204.813,133,0,0,-3.0267
2.06,173.821,234.915,207.474,133,0,0,-4.15046
2.08,176.472,234.693,210.134,133,0,0,-5.45092
2.1,179.116,234.407,212.793,133,0,0,-6.94953
2.12,181.752,234.047,215.454,133,0,0,-8.66777
2.14,184.374,233.603,218.113,133,0,0,-10.633
2.16,186.979,233.063,220.773,133,0,0,-12.8753
2.18,189.558,232.415,223.433,133,0,0,-15.4286
2.2,192.104,231.645,226.092,133,0,0,-18.3277
2.22,194.604,230.739,228.752,133,0,0,-21.618
2.24,197.045,229.682,231.412,133,0,0,-25.3269
2.26,199.407,228.461,234.071,133,0,0,-29.4667
2.28,201.67,227.063,236.731,133,0,0,-34.0403
2.3,203.808,225.482,239.39,133,0,0,-38.9935
2.32,205.797,223.717,242.049,133,0,0,-44.238
2.34,207.613,221.775,244.708,133,0,0,-49.6407
2.36,209.237,219.67,247.366,133,0,0,-55.0204
2.38,210.66,217.423,250.026,133,0,0,-60.2175
2.4,211.879,215.06,252.685,133,0,0,-65.0823
2.42,212.903,212.606,255.344,133,0,0,-69.5256
2.44,213.744,210.082,258.004,133,0,0,-73.4974
2.46,214.419,207.51,260.663,133,0,0,-76.9699
2.48,214.948,204.903,263.324,133,0,0,-79.9709
2.5,215.349,202.274,265.983,133,0,0,-82.5277
2.52,215.644,199.631,268.642,133,0,0,-84.6649
2.54,215.848,196.979,271.302,133,0,0,-86.4194
2.56,215.979,194.322,273.962,133,0,0,-87.8291
2.58,216.055,191.663,276.622,133,0,0,-88.8562
2.6,216.089,189.003,279.283,133,0,0,-89.5621
2.62,216.098,186.343,281.943,133,0,0,-89.9308
2.64,216.099,183.683,284.603,133,0,0,-90.0469
2.66,216.092,181.023,287.263,133,0,0,-90.3019
2.68,216.068,178.363,289.923,133,0,0,-90.8156
2.7,216.014,175.704,292.582,133,0,0,-91.5765
2.72,215.919,173.046,295.242,133,0,0,-92.5892
2.74,215.771,170.39,297.902,133,0,0,-93.8742
2.76,215.557,167.739,300.562,133,0,0,-95.4278
2.78,215.265,165.095,303.222,133,0,0,-97.2747
2.8,214.88,162.463,305.882,133,0,0,-99.4283
2.82,214.389,159.849,308.542,133,0,0,-101.933
2.84,213.777,157.261,311.201,133,0,0,-104.783
2.86,213.028,154.708,313.862,133,0,0,-108.001
2.88,212.13,152.205,316.521,133,0,0,-111.586
2.9,211.069,149.766,319.181,133,0,0,-115.512
2.92,209.838,147.409,321.84,133,0,0,-119.737
2.94,208.431,145.153,324.498,133,0,0,-124.189
2.96,206.85,143.014,327.158,133,0,0,-128.767
2.98,205.103,141.009,329.818,133,0,0,-133.361
3,203.202,139.149,332.477,133,0,0,-137.853
3.02,201.164,137.441,335.136,133,0,0,-142.152
3.04,199.007,135.886,337.795,133,0,0,-146.182
3.06,196.75,134.479,340.455,133,0,0,-149.899
3.08,194.409,133.216,343.115,133,0,0,-153.289
3.1,192.002,132.086,345.774,133,0,0,-156.356
3.12,189.539,131.08,348.435,133,0,0,-159.108
3.14,187.034,130.187,351.094,133,0,0,-161.581
3.16,184.494,129.396,353.754,133,0,0,-163.783
3.18,181.928,128.699,356.413,133,0,0,-165.756
3.2,179.34,128.085,359.073,133,0,0,-167.519
3.22,176.735,127.547,361.733,133,0,0,-169.1
3.24,174.116,127.078,364.394,133,0,0,-170.518
3.26,171.488,126.669,367.053,133,0,0,-171.797
3.28,168.851,126.317,369.714,133,0,0,-172.939
3.3,166.209,126.014,372.373,133,0,0,-173.973
3.32,163.561,125.757,375.034,133,0,0,-174.91
3.34,160.91,125.541,377.693,133,0,0,-175.755
3.36,158.256,125.363,380.353,133,0,0,-176.525
3.38,155.6,125.218,383.013,133,0,0,-177.228
3.4,152.942,125.105,385.674,133,0,0,-177.87
3.42,150.284,125.02,388.333,133,0,0,-178.46
3.44,147.624,124.962,390.994,133,0,0,-179.007
3.46,144.965,124.928,393.653,133,0,0,-179.517
3.48,142.305,124.916,396.313,133,0,0,-179.978
3.5,139.645,124.922,398.973,133,0,0,179.733
3.52,136.985,124.943,401.633,133,0,0,179.351
3.54,134.325,124.984,404.293,133,0,0,178.859
3.56,131.666,125.05,406.953,133,0,0,178.26
3.58,129.008,125.147,409.613,133,0,0,177.553
3.6,126.351,125.278,412.273,133,0,0,176.744
3.62,123.697,125.45,414.933,133,0,0,175.837
3.64,121.045,125.666,417.594,133,0,0,174.827
3.66,118.399,125.931,420.253,133,0,0,173.719
3.68,115.758,126.249,422.913,133,0,0,172.512
3.7,113.125,126.625,425.573,133,0,0,171.211
3.72,110.501,127.063,428.233,133,0,0,169.822
3.74,107.889,127.566,430.893,133,0,0,168.346
3.76,105.291,128.138,433.553,133,0,0,166.793
3.78,102.711,128.782,436.212,133,0,0,165.176
3.8,100.149,129.5,438.873,133,0,0,163.505
3.82,97.61,130.293,441.533,133,0,0,161.797
3.84,95.096,131.162,444.193,133,0,0,160.073
3.86,92.61,132.106,446.852,133,0,0,158.351
3.88,90.152,133.124,449.512,133,0,0,156.659
3.9,87.7255,134.213,452.172,133,0,0,155.018
3.92,85.3302,135.369,454.832,133,0,0,153.456
3.94,82.9662,136.589,457.492,133,0,0,151.999
3.96,80.6327,137.865,460.152,133,0,0,150.664
3.98,78.3278,139.193,462.812,133,0,0,149.484
4,76.0488,140.565,465.472,133,0,0,148.471
4.02,73.7922,141.973,468.132,133,0,0,147.637
4.04,71.5537,143.41,470.792,133,0,0,147.009
4.06,69.3286,144.868,473.452,133,0,0,146.589
4.08,67.1115,146.337,476.112,133,0,0,146.377
4.1,64.8969,147.811,478.772,133,0,0,146.394
4.12,62.6791,149.279,481.432,133,0,0,146.632
4.14,60.4525,150.735,484.092,133,0,0,147.082
4.16,58.2117,152.168,486.752,133,0,0,147.754
4.18,55.9517,153.571,489.412,133,0,0,148.631
4.2,53.6685,154.935,492.071,132.95,73.0751,0,149.695
4.22,51.376,156.243,494.711,130.742,133,0,150.93
4.24,49.0996,157.474,497.299,128.082,133,0,152.292
4.26,46.8404,158.625,499.834,125.422,133,0,153.746
4.28,44.6009,159.693,502.315,122.762,133,0,155.267
4.3,42.3814,160.679,504.744,120.102,133,0,156.828
4.32,40.185,161.584,507.12,117.442,133,0,158.4
4.34,38.0151,162.409,509.441,114.782,133,0,159.962
4.36,35.873,163.158,511.71,112.122,133,0,161.495
4.38,33.7621,163.835,513.927,109.462,133,0,162.984
4.4,31.6868,164.441,516.089,106.802,133,0,164.413
4.42,29.6488,164.984,518.198,104.142,133,0,165.776
4.44,27.6502,165.466,520.254,101.482,133,0,167.066
4.46,25.6934,165.893,522.257,98.8219,133,0,168.28
4.48,23.7803,166.27,524.207,96.1619,133,0,169.417
4.5,21.9124,166.601,526.104,93.5019,133,0,170.474
4.52,20.0911,166.891,527.948,90.8419,133,0,171.457
4.54,18.32,167.142,529.737,88.1819,133,0,172.358
4.56,16.5975,167.36,531.473,85.5219,133,0,173.191
4.58,14.9234,167.549,533.158,82.8619,133,0,173.954
4.6,13.3009,167.71,534.788,80.2019,133,0,174.654
4.62,11.7306,167.848,536.365,77.5419,133,0,175.287
4.64,10.2092,167.966,537.891,74.8819,133,0,175.866
4.66,8.7436,168.065,539.36,72.2219,133,0,176.388
4.68,7.3273,168.148,540.778,69.5619,133,0,176.858
4.7,5.9645,168.218,542.143,66.9019,133,0,177.284
4.72,4.6562,168.276,543.452,64.2419,133,0,177.659
4.74,3.3982,168.323,544.711,61.5819,133,0,177.999
4.76,2.1914,168.362,545.919,58.9219,133,0,178.301
4.78,1.041,168.393,547.07,56.2619,133,0,178.563
4.8,-0.0556,168.419,548.166,53.6019,133,0,178.797
4.82,-1.0998,168.439,549.211,50.9419,133,0,178.999
4.84,-2.09144,168.454,550.203,48.2819,133,0,179.173
4.86,-3.03091,168.467,551.142,45.6219,133,0,179.327
4.88,-3.91928,168.476,552.031,42.9619,133,0,179.458
4.9,-4.75026,168.483,552.862,40.3019,133,0,179.565
4.92,-5.52327,168.488,553.635,37.6419,133,0,179.655
4.94,-6.24646,168.492,554.358,34.9819,133,0,179.731
4.96,-6.92816,168.495,555.04,32.3219,133,0,179.797
4.98,-7.53683,168.496,555.648,29.6619,133,0,179.842
5,-8.10072,168.498,556.212,27.0019,133,0,179.882
5.02,-8.61386,168.499,556.725,24.3419,133,0,179.913
5.04,-9.06491,168.499,557.176,21.6819,133,0,179.937
5.06,-9.45866,168.5,557.57,19.0219,133,0,179.954
5.08,-9.85241,168.5,557.964,16.3619,133,0,179.971
5.1,-10.02,168.5,558.131,13.7019,133,0,179.975
5.12,-10.1831,168.5,558.295,11.0419,133,0,179.978
5.14,-10.3462,168.5,558.458,8.38188,133,0,179.981
5.16,-10.5093,168.5,558.621,5.72188,133,0,179.984
5.18,-10.6724,168.5,558.784,3.06188,133,0,179.987
5.2,-10.8355,168.5,558.947,0.401883,133,0,179.99
