"time","x","y","position","velocity","acceleration","jerk","heading"
0,11.5,168.5,0,0,133,0,0
0.02,11.5268,168.5,0.0268191,2.66,133,0,-0.000103511
0.04,11.6065,168.5,0.106455,5.32,133,0,-0.000410873
0.06,11.7394,168.5,0.239406,7.98,133,0,-0.000924014
0.08,11.9256,168.5,0.425614,10.64,133,0,-0.00164271
0.1,12.165,168.5,0.665009,13.3,133,0,-0.00256668
0.12,12.4576,168.5,0.957605,15.96,133,0,-0.00426331
0.14,12.8034,168.5,1.3034,18.62,133,0,-0.00824761
0.16,13.2024,168.5,1.7024,21.28,133,0,-0.0128449
0.18,13.6546,168.5,2.1546,23.94,133,0,-0.0209928
0.2,14.16,168.5,2.66,26.6,133,0,-0.0307187
0.22,14.7186,168.499,3.2186,29.26,133,0,-0.0455807
0.24,15.3304,168.499,3.8304,31.92,133,0,-0.0640629
0.26,15.9954,168.498,4.4954,34.58,133,0,-0.0872766
0.28,16.7136,168.496,5.2136,37.24,133,0,-0.117009
0.3,17.485,168.495,5.98501,39.9,133,0,-0.153947
0.32,18.3096,168.492,6.8096,42.56,133,0,-0.198647
0.34,19.1874,168.489,7.68741,45.22,133,0,-0.252225
0.36,20.1184,168.484,8.6184,47.88,133,0,-0.315787
0.38,21.1026,168.478,9.60261,50.54,133,0,-0.390423
0.4,22.1399,168.47,10.64,53.2,133,0,-0.477587
0.42,23.2305,168.46,11.7306,55.86,133,0,-0.579075
0.44,24.3742,168.447,12.8744,58.52,133,0,-0.695218
0.46,25.5711,168.432,14.0714,61.18,133,0,-0.827074
0.48,26.8211,168.412,15.3216,63.84,133,0,-0.978073
0.5,28.1243,168.388,16.625,66.5,133,0,-1.14745
0.52,29.4806,168.358,17.9816,69.16,133,0,-1.33867
0.54,30.89,168.323,19.3914,71.82,133,0,-1.55158
0.56,32.3523,168.28,20.8544,74.48,133,0,-1.78991
0.58,33.8677,168.229,22.3706,77.14,133,0,-2.05429
0.6,35.4359,168.169,23.94,79.8,133,0,-2.34664
0.62,37.057,168.098,25.5626,82.46,133,0,-2.66923
0.64,38.7307,168.015,27.2384,85.12,133,0,-3.02437
0.66,40.457,167.918,28.9674,87.78,133,0,-3.41444
0.68,42.2356,167.805,30.7496,90.44,133,0,-3.84186
0.7,44.0664,167.675,32.585,93.1,133,0,-4.30915
0.72,45.949,167.525,34.4736,95.76,133,0,-4.81887
0.74,47.8831,167.353,36.4153,98.42,133,0,-5.37368
0.76,49.8683,167.155,38.4104,101.08,133,0,-5.97833
0.78,51.9041,166.93,40.4586,103.74,133,0,-6.63446
0.8,53.9899,166.675,42.5599,106.4,133,0,-7.34675
0.82,56.1249,166.385,44.7145,109.06,133,0,-8.11799
0.84,58.3083,166.058,46.9222,111.72,133,0,-8.95422
0.86,60.5389,165.688,49.1833,114.38,133,0,-9.85823
0.88,62.8155,165.273,51.4974,117.04,133,0,-10.8351
0.9,65.1365,164.807,53.8648,119.7,133,0,-11.8899
0.92,67.5001,164.285,56.2853,122.36,133,0,-13.0281
0.94,69.9041,163.702,58.759,125.02,133,0,-14.2548
0.96,72.346,163.051,61.2862,127.68,133,0,-15.5755
0.98,74.8227,162.328,63.8662,130.34,133,0,-16.9963
1,77.3306,161.525,66.4996,133,1.18434e-06,0,-18.5232
1.02,79.8406,160.645,69.1594,133,0,0,-20.1438
1.04,82.3241,159.692,71.8194,133,0,0,-21.8445
1.06,84.7775,158.665,74.4791,133,0,0,-23.624
1.08,87.197,157.56,77.139,133,0,0,-25.4806
1.1,89.5786,156.375,79.7991,133,0,0,-27.4133
1.12,91.9182,155.11,82.4588,133,0,0,-29.417
1.14,94.2112,153.762,85.1187,133,0,0,-31.4871
1.16,96.4533,152.331,87.7785,133,0,0,-33.6183
1.18,98.6399,150.817,90.4381,133,0,0,-35.8026
1.2,100.767,149.219,93.0983,133,0,0,-38.0311
1.22,102.829,147.539,95.7583,133,0,0,-40.2941
1.24,104.823,145.779,98.418,133,0,0,-42.581
1.26,106.745,143.941,101.077,133,0,0,-44.8804
1.28,108.592,142.026,103.738,133,0,0,-47.1803
1.3,110.36,140.04,106.397,133,0,0,-49.469
1.32,112.048,137.984,109.057,133,0,0,-51.7351
1.34,113.654,135.864,111.717,133,0,0,-53.968
1.36,115.177,133.683,114.377,133,0,0,-56.157
1.38,116.617,131.447,117.036,133,0,0,-58.2937
1.4,117.974,129.159,119.697,133,0,0,-60.3708
1.42,119.248,126.824,122.356,133,0,0,-62.3822
1.44,120.44,124.446,125.016,133,0,0,-64.3215
1.46,121.553,122.031,127.676,133,0,0,-66.1865
1.48,122.589,119.581,130.336,133,0,0,-67.9745
1.5,123.549,117.1,132.996,133,0,0,-69.6828
1.52,124.437,114.593,135.656,133,0,0,-71.3127
1.54,125.248,112.082,138.294,130.61,133,0,-72.8495
1.56,125.98,109.602,140.88,127.95,133,0,-74.2815
1.58,126.637,107.157,143.412,125.29,133,0,-75.6126
1.6,127.227,104.749,145.891,122.63,133,0,-76.8485
1.62,127.755,102.381,148.317,119.97,133,0,-77.9954
1.64,128.227,100.055,150.691,117.31,133,0,-79.0586
1.66,128.647,97.774,153.01,114.65,133,0,-80.0435
1.68,129.021,95.539,155.276,111.99,133,0,-80.9552
1.7,129.353,93.351,157.489,109.33,133,0,-81.7973
1.72,129.646,91.211,159.649,106.67,133,0,-82.5754
1.74,129.905,89.12,161.756,104.01,133,0,-83.2941
1.76,130.133,87.0791,163.81,101.35,133,0,-83.9554
1.78,130.333,85.0888,165.81,98.69,133,0,-84.565
1.8,130.508,83.1494,167.757,96.03,133,0,-85.1254
1.82,130.66,81.2616,169.651,93.37,133,0,-85.6394
1.84,130.793,79.4256,171.492,90.71,133,0,-86.1108
1.86,130.907,77.6416,173.28,88.05,133,0,-86.5421
1.88,131.006,75.91,175.014,85.39,133,0,-86.9359
1.9,131.09,74.231,176.695,82.73,133,0,-87.2946
1.92,131.162,72.6046,178.323,80.07,133,0,-87.6206
1.94,131.224,71.031,179.898,77.41,133,0,-87.9163
1.96,131.275,69.5102,181.42,74.75,133,0,-88.1838
1.98,131.319,68.0425,182.888,72.09,133,0,-88.424
2,131.355,66.6278,184.303,69.43,133,0,-88.6398
2.02,131.385,65.2661,185.665,66.77,133,0,-88.8334
2.04,131.41,63.9575,186.974,64.11,133,0,-89.0048
2.06,131.43,62.7021,188.229,61.45,133,0,-89.1575
2.08,131.446,61.4998,189.432,58.79,133,0,-89.2916
2.1,131.459,60.3507,190.581,56.13,133,0,-89.4091
2.12,131.469,59.2547,191.677,53.47,133,0,-89.5119
2.14,131.477,58.2119,192.72,50.81,133,0,-89.6011
2.16,131.483,57.2224,193.709,48.15,133,0,-89.6769
2.18,131.488,56.286,194.646,45.49,133,0,-89.7416
2.2,131.492,55.4028,195.529,42.83,133,0,-89.7961
2.22,131.494,54.5728,196.359,40.17,133,0,-89.8418
2.24,131.496,53.796,197.136,37.51,133,0,-89.8796
2.26,131.498,53.0724,197.859,34.85,133,0,-89.9095
2.28,131.499,52.402,198.53,32.19,133,0,-89.9335
2.3,131.499,51.7848,199.147,29.53,133,0,-89.9527
2.32,131.499,51.2208,199.711,26.87,133,0,-89.9677
2.34,131.5,50.71,200.222,24.21,133,0,-89.9779
2.36,131.5,50.2524,200.679,21.55,133,0,-89.9866
2.38,131.5,49.848,201.084,18.89,133,0,-89.9912
2.4,131.5,49.4968,201.435,16.23,133,0,-89.9953
2.42,131.5,49.1988,201.733,13.57,133,0,-89.9973
2.44,131.5,48.954,201.978,10.91,133,0,-89.9982
2.46,131.5,48.7624,202.169,8.25,133,0,-89.999
2.48,131.5,48.624,202.308,5.59,133,0,-89.9995
2.5,131.5,48.5389,202.393,2.93,133,0,-89.9998
2.52,131.5,48.5082,202.424,0.27,133,0,-90
